File: /data/Ryzhkov/20140302/netcdf/cut_hrrr_20140302-2200F0000.nc
Lat: 35.3331 Lon: 262.722
H0 index: 12 H0_hgt: 2677.63 warm area: 1426.68
H1 index: 8 H1_hgt: 1523.86 cold area: 10639.4
H2 index: -1 H2_hgt: -99900 warm area: -99900
#i      Height      Pressure      Qvapor        Temp      TempWB          RH       Uwind       Vwind
 0    377.3415    98000.0000  1.4978e-03    -10.5202    -10.7035      0.8528      0.0000    -23.8231  
 1    402.8168    97700.0000  1.4978e-03    -10.9526    -11.0148      0.8796      0.0000      0.0000  
 2    447.3244    97200.0000  1.3980e-03    -11.3273    -11.5180      0.8415      0.0000  16889561786899817854282347607375216640.0000  
 3    520.5752    96200.0000  1.3980e-03    -12.1802    -12.1587      0.8912      0.0000      0.0000  
 4    627.1032    94900.0000  1.2983e-03    -13.1218    -13.1080      0.8804      0.0000      0.0000  
 5    765.9412    93100.0000  1.1986e-03    -14.3151    -14.2753      0.8779      0.0000      0.0000  
 6    933.5183    91100.0000  1.3980e-03    -12.8792    -12.8313      0.8924      0.0000      0.0000  
 7   1126.6453    88800.0000  2.0956e-03     -8.7826     -8.6685      0.9431      0.0000      0.0000  
 8   1348.7778    86400.0000  3.7856e-03     -2.4859     -2.2019      1.0258      0.0000  12471552253237393885333045079514808320.0000  
 9   1607.3540    83600.0000  4.9751e-03      0.9806      1.0501      1.0106      0.0000      0.0000  
10   1906.1143    80600.0000  5.5688e-03      2.2253      2.1993      0.9963      0.0000  12499825932224884313904027547807514624.0000  
11   2246.8975    77300.0000  5.4699e-03      1.3535      1.3486      0.9993      0.0000      0.0000  
12   2632.9614    73700.0000  5.2721e-03      0.1241      0.1512      1.0040  19666077881820705288939554187562188800.0000      0.0000  
13   3069.7334    69700.0000  4.8761e-03     -1.1626     -1.3270      0.9652      0.0000      0.0000  
14   3563.4927    65600.0000  4.5195e-03     -3.4683     -3.2620      0.9990  12475608735158124219417834529772011520.0000      0.0000  
15   4120.8018    61100.0000  3.4282e-03     -5.7966     -6.4681      0.8424      0.0000      0.0000  
16   4734.8281    56400.0000  2.1553e-03     -8.8722    -10.8927      0.6203      0.0000      0.0000  
17   5370.9844    51800.0000  1.5077e-03    -13.7387    -15.3849      0.5862      0.0000      0.0000  
18   5991.8555    47700.0000  1.3183e-03    -18.5767    -19.1062      0.7024      0.0000  16889561786899817854282347607375216640.0000  
19   6584.2227    44000.0000  8.4928e-04    -23.2719    -23.8365      0.6233      0.0000      0.0000  
20   7149.7891    40700.0000  3.9984e-04    -27.8753    -28.9498      0.4082  7932230375764393984.0000      0.0000  
21   7690.7852    37800.0000  1.1999e-04    -32.1259    -33.9673      0.1681      0.0000      0.0000  
22   8207.2266    35000.0000  6.9995e-05    -35.9527    -37.5261      0.1305  16889561786899817854282347607375216640.0000      0.0000  
23   8699.3203    32700.0000  1.4498e-04    -39.4804    -39.9250      0.3567      0.0000      0.0000  
24   9167.4492    30400.0000  1.1999e-04    -42.9420    -43.2037      0.3890  19666077881820705288939554187562188800.0000  19666077881820705288939554187562188800.0000  
25   9611.7969    28600.0000  6.2996e-05    -45.7914    -46.1620      0.2582      0.0000      0.0000  
26  10036.5664    26800.0000  3.8998e-05    -48.2851    -48.6754      0.1951      0.0000  12533946015780627336474712811283415040.0000  
27  10446.1836    25100.0000  2.8999e-05    -50.6988    -51.0396      0.1765      0.0000      0.0000  
28  10839.7227    23650.0000  2.4999e-05    -53.0892    -53.3475      0.1869  12470857580708468815621024886158262272.0000  12524134400134860840907128328473804800.0000  
29  11225.4453    22290.0000  2.2000e-05    -55.1129    -55.3186      0.1948      0.0000      0.0000  
30  11623.7188    20940.0000  2.0600e-05    -56.2265    -56.4163      0.1947  12495657897051333895631906387668238336.0000  12499825932224884313904027547807514624.0000  
31  12047.7266    19600.0000  1.8700e-05    -56.0688    -56.3090      0.1625      0.0000      0.0000  
32  12502.8594    18240.0000  1.6500e-05    -55.5565    -55.8833      0.1258      0.0000      0.0000  
33  12993.5312    16890.0000  1.2800e-05    -55.7193    -56.1318      0.0921      0.0000      0.0000  
34  13523.8594    15540.0000  8.1999e-06    -56.6486    -57.1369      0.0604  12475608735158124219417834529772011520.0000  12475608735158124219417834529772011520.0000  
35  14098.9961    14180.0000  5.4000e-06    -58.4546    -58.9401      0.0448      0.0000      0.0000  
36  14725.5625    12840.0000  4.9000e-06    -61.0352    -61.4122      0.0501      0.0000      0.0000  
37  15413.5391    11490.0000  4.4000e-06    -63.8163    -64.1031      0.0565      0.0000      0.0000  
38  16167.3281    10130.0000  3.2000e-06    -64.2187    -64.5715      0.0381      0.0000      0.0000  
39  16948.7109     8880.0000  3.0000e-06    -63.5397    -64.0017      0.0288      0.0000      0.0000  
40  17689.7734     7870.0000  3.5000e-06    -64.4216    -64.8578      0.0332     -0.0000     -0.0000  
41  18383.1758     7050.0000  3.7000e-06    -65.1971    -65.6244      0.0346      0.0000      0.0000  
42  19083.4414     6290.0000  4.2000e-06    -63.6220    -64.2194      0.0288  16889561786899817854282347607375216640.0000  16889561786899817854282347607375216640.0000  
43  19824.5742     5580.0000  4.6900e-06    -61.4366    -62.3684      0.0219      0.0000      0.0000  
44  20609.2656     4920.0000  4.9300e-06    -60.6147    -61.8170      0.0183  19666077881820705288939554187562188800.0000      0.0000  
45  21444.8633     4300.0000  5.3800e-06    -59.0360    -60.7714      0.0145      0.0000      0.0000  
46  22348.6797     3725.0000  5.5700e-06    -57.1808    -59.8238      0.0105      0.0000      0.0000  
47  23336.4609     3189.0000  4.9100e-06    -55.4663    -59.5267      0.0065      0.0000      0.0000  
